Distance(A)   Energy(eV)
1.20   40.5454
1.30   21.2942
1.40   9.3501
1.50   2.1781
1.60   -1.9461
1.70   -4.1570
1.80   -5.3286
1.90   -6.0176
2.00   -6.3553
2.10   -6.4153
2.20   -6.2995
2.30   -6.0888
2.40   -5.8471
2.50   -5.6175
2.60   -5.4205
2.70   -5.2581
