Distance(A)   Energy(eV)
1.20   39.8191
1.30   19.7230
1.40   7.7272
1.50   0.8058
1.60   -3.0800
1.70   -5.1770
1.80   -6.2755
1.90   -6.7771
2.00   -6.8778
2.10   -6.7262
2.20   -6.4580
2.30   -6.1645
2.40   -5.8917
2.50   -5.6558
2.60   -5.4611
2.70   -5.3075
