Distance(A)   Energy(eV)
1.20   30.5342
1.30   14.0731
1.40   4.6684
1.50   -0.6092
1.60   -3.5624
1.70   -5.0845
1.80   -5.7677
1.90   -6.0249
2.00   -6.0912
2.10   -6.0244
2.20   -5.8362
2.30   -5.5754
2.40   -5.3118
2.50   -5.0868
2.60   -4.9060
2.70   -4.7580
