Distance(A)   Energy(eV)
1.20   31.5293
1.30   15.6630
1.40   6.1753
1.50   0.7092
1.60   -2.3394
1.70   -3.9889
1.80   -4.8699
1.90   -5.3475
2.00   -5.5743
2.10   -5.6189
2.20   -5.5198
2.30   -5.3204
2.40   -5.0788
2.50   -4.8393
2.60   -4.6230
2.70   -4.4339
