Distance(A)   Energy(eV)
1.20   36.6010
1.30   18.1709
1.40   7.3499
1.50   1.0800
1.60   -2.4810
1.70   -4.3703
1.80   -5.3846
1.90   -6.0016
2.00   -6.3168
2.10   -6.3488
2.20   -6.1860
2.30   -5.9350
2.40   -5.6712
2.50   -5.4268
2.60   -5.2088
2.70   -5.0164
