Distance(A)   Energy(eV)
1.20   44.0658
1.30   25.2074
1.40   12.8475
1.50   5.1360
1.60   0.4676
1.70   -2.3773
1.80   -4.1281
1.90   -5.1568
2.00   -5.6895
2.10   -5.9245
2.20   -5.9748
2.30   -5.8935
2.40   -5.7341
2.50   -5.5431
2.60   -5.3558
2.70   -5.1910
