Distance(A)   Energy(eV)
1.20   45.6709
1.30   25.0907
1.40   12.0247
1.50   4.0029
1.60   -0.7109
1.70   -3.3830
1.80   -4.9695
1.90   -5.8961
2.00   -6.3498
2.10   -6.5148
2.20   -6.5072
2.30   -6.3800
2.40   -6.1815
2.50   -5.9513
2.60   -5.7215
2.70   -5.5156
