Distance(A)   Energy(eV)
1.20   13.1274
1.30   4.7210
1.40   -0.0134
1.50   -2.5792
1.60   -4.0111
1.70   -4.7657
1.80   -5.1399
1.90   -5.3134
2.00   -5.3105
2.10   -5.1731
2.20   -4.9677
2.30   -4.7515
2.40   -4.5608
2.50   -4.4056
2.60   -4.2783
2.70   -4.1663
